docs size[MB] time[s] mem[MB]
1000 0.19 0.54 67.92
2000 0.38 0.23 61.98
3000 0.57 0.16 70.62
4000 0.76 0.17 78.06
5000 0.95 0.20 85.85
6000 1.14 0.23 94.95
7000 1.33 0.28 102.21
8000 1.66 0.33 111.35
9000 1.85 0.38 121.24
10000 2.04 0.41 123.64
11000 2.23 0.45 129.75
12000 2.42 0.49 139.23
13000 2.61 0.55 148.34
14000 2.80 0.59 154.11
15000 3.00 0.63 160.02
16000 3.18 0.67 164.30
17000 3.36 0.70 170.21
18000 3.65 0.76 184.53
