docs size[MB] time[s] mem[MB]
1000 0.19 0.58 67.66
2000 0.38 0.27 63.34
3000 0.57 0.27 69.99
4000 0.76 0.35 80.35
5000 0.95 0.46 84.88
6000 1.14 0.60 93.36
7000 1.33 0.75 102.85
8000 1.66 0.98 113.17
9000 1.85 1.13 123.65
10000 2.04 1.35 127.00
11000 2.23 1.52 133.67
12000 2.42 1.73 143.04
13000 2.61 1.96 152.73
14000 2.80 2.19 156.77
15000 3.00 2.49 163.77
16000 3.18 2.72 167.92
17000 3.36 2.99 174.89
18000 3.65 3.32 189.09
